   20.000000    126.000000
   20.050000    143.000000
   20.100000    127.000000
   20.150000    121.000000
   20.200000    149.000000
   20.250000    142.000000
   20.300000    130.000000
   20.350000    129.000000
   20.400000    125.000000
   20.450000    134.000000
   20.500000    137.000000
   20.550000    132.000000
   20.600000    105.000000
   20.650000    113.000000
   20.700000     99.000000
   20.750000    144.000000
   20.800000    113.000000
   20.850000    106.000000
   20.900000    116.000000
   20.950000    112.000000
   21.000000    143.000000
   21.050000    141.000000
   21.100000    120.000000
   21.150000    119.000000
   21.200000    115.000000
   21.250000    118.000000
   21.300000    104.000000
   21.350000    120.000000
   21.400000    132.000000
   21.450000    123.000000
   21.500000    122.000000
   21.550000    101.000000
   21.600000    130.000000
   21.650000    123.000000
   21.700000    112.000000
   21.750000    117.000000
   21.800000    114.000000
   21.850000    116.000000
   21.900000    133.000000
   21.950000    124.000000
   22.000000    112.000000
   22.050000    119.000000
   22.100000    122.000000
   22.150000    119.000000
   22.200000    106.000000
   22.250000    103.000000
   22.300000    106.000000
   22.350000    121.000000
   22.400000    140.000000
   22.450000    128.000000
   22.500000    115.000000
   22.550000     98.000000
   22.600000    124.000000
   22.650000    105.000000
   22.700000     95.000000
   22.750000    107.000000
   22.800000    103.000000
   22.850000    120.000000
   22.900000     99.000000
   22.950000    101.000000
   23.000000    123.000000
   23.050000    116.000000
   23.100000    142.000000
   23.150000    108.000000
   23.200000    118.000000
   23.250000    126.000000
   23.300000    131.000000
   23.350000    124.000000
   23.400000    137.000000
   23.450000    129.000000
   23.500000    125.000000
   23.550000    108.000000
   23.600000     80.000000
   23.650000    126.000000
   23.700000    102.000000
   23.750000    121.000000
   23.800000    110.000000
   23.850000    125.000000
   23.900000    101.000000
   23.950000    113.000000
   24.000000    107.000000
   24.050000    126.000000
   24.100000    126.000000
   24.150000    102.000000
   24.200000    110.000000
   24.250000    121.000000
   24.300000    108.000000
   24.350000    123.000000
   24.400000    109.000000
   24.450000    123.000000
   24.500000    112.000000
   24.550000    110.000000
   24.600000    122.000000
   24.650000    113.000000
   24.700000     88.000000
   24.750000    116.000000
   24.800000    130.000000
   24.850000    132.000000
   24.900000    129.000000
   24.950000    103.000000
   25.000000    116.000000
   25.050000    112.000000
   25.100000    108.000000
   25.150000    107.000000
   25.200000    125.000000
   25.250000    120.000000
   25.300000    115.000000
   25.350000    134.000000
   25.400000    130.000000
   25.450000    128.000000
   25.500000    137.000000
   25.550000    124.000000
   25.600000    137.000000
   25.650000    130.000000
   25.700000    133.000000
   25.750000    148.000000
   25.800000    120.000000
   25.850000    141.000000
   25.900000    122.000000
   25.950000    115.000000
   26.000000    129.000000
   26.050000    132.000000
   26.100000    129.000000
   26.150000    156.000000
   26.200000    145.000000
   26.250000    136.000000
   26.300000    148.000000
   26.350000    147.000000
   26.400000    145.000000
   26.450000    174.000000
   26.500000    180.000000
   26.550000    197.000000
   26.600000    191.000000
   26.650000    199.000000
   26.700000    206.000000
   26.750000    204.000000
   26.800000    199.000000
   26.850000    216.000000
   26.900000    243.000000
   26.950000    227.000000
   27.000000    252.000000
   27.050000    254.000000
   27.100000    314.000000
   27.150000    296.000000
   27.200000    335.000000
   27.250000    359.000000
   27.300000    404.000000
   27.350000    425.000000
   27.400000    473.000000
   27.450000    523.000000
   27.500000    652.000000
   27.550000    712.000000
   27.600000    821.000000
   27.650000    985.000000
   27.700000   1198.000000
   27.750000   1412.000000
   27.800000   1776.000000
   27.850000   2228.000000
   27.900000   2713.000000
   27.950000   3523.000000
   28.000000   4500.000000
   28.050000   5526.000000
   28.100000   6865.000000
   28.150000   8371.000000
   28.200000   9824.000000
   28.250000   10734.000000
   28.300000   10856.000000
   28.350000   10237.000000
   28.400000   8978.000000
   28.450000   7649.000000
   28.500000   6219.000000
   28.550000   5041.000000
   28.600000   4043.000000
   28.650000   3230.000000
   28.700000   2628.000000
   28.750000   2235.000000
   28.800000   1707.000000
   28.850000   1384.000000
   28.900000   1174.000000
   28.950000   1003.000000
   29.000000    938.000000
   29.050000    739.000000
   29.100000    656.000000
   29.150000    580.000000
   29.200000    507.000000
   29.250000    486.000000
   29.300000    442.000000
   29.350000    432.000000
   29.400000    369.000000
   29.450000    337.000000
   29.500000    296.000000
   29.550000    277.000000
   29.600000    268.000000
   29.650000    261.000000
   29.700000    299.000000
   29.750000    245.000000
   29.800000    239.000000
   29.850000    250.000000
   29.900000    184.000000
   29.950000    182.000000
   30.000000    178.000000
   30.050000    190.000000
   30.100000    227.000000
   30.150000    160.000000
   30.200000    166.000000
   30.250000    176.000000
   30.300000    166.000000
   30.350000    191.000000
   30.400000    148.000000
   30.450000    121.000000
   30.500000    164.000000
   30.550000    124.000000
   30.600000    145.000000
   30.650000    155.000000
   30.700000    154.000000
   30.750000    167.000000
   30.800000    137.000000
   30.850000    127.000000
   30.900000    125.000000
   30.950000    124.000000
   31.000000    128.000000
   31.050000    135.000000
   31.100000    129.000000
   31.150000    131.000000
   31.200000    101.000000
   31.250000    139.000000
   31.300000    111.000000
   31.350000    123.000000
   31.400000    127.000000
   31.450000    137.000000
   31.500000    115.000000
   31.550000    105.000000
   31.600000    130.000000
   31.650000    129.000000
   31.700000    106.000000
   31.750000    109.000000
   31.800000    120.000000
   31.850000     92.000000
   31.900000    107.000000
   31.950000    114.000000
   32.000000     95.000000
   32.050000     98.000000
   32.100000    136.000000
   32.150000    111.000000
   32.200000     87.000000
   32.250000    108.000000
   32.300000    123.000000
   32.350000    126.000000
   32.400000    115.000000
   32.450000    116.000000
   32.500000    126.000000
   32.550000    120.000000
   32.600000    146.000000
   32.650000    129.000000
   32.700000    125.000000
   32.750000    131.000000
   32.800000    131.000000
   32.850000    137.000000
   32.900000    137.000000
   32.950000    144.000000
   33.000000    130.000000
   33.050000    130.000000
   33.100000    116.000000
   33.150000    120.000000
   33.200000    127.000000
   33.250000    107.000000
   33.300000    102.000000
   33.350000    112.000000
   33.400000    104.000000
   33.450000    118.000000
   33.500000     92.000000
   33.550000     99.000000
   33.600000    113.000000
   33.650000    118.000000
   33.700000     93.000000
   33.750000    109.000000
   33.800000     97.000000
   33.850000     98.000000
   33.900000     95.000000
   33.950000    101.000000
   34.000000    104.000000
   34.050000     95.000000
   34.100000    108.000000
   34.150000    107.000000
   34.200000    103.000000
   34.250000    106.000000
   34.300000    100.000000
   34.350000     84.000000
   34.400000     93.000000
   34.450000     98.000000
   34.500000     99.000000
   34.550000     81.000000
   34.600000    105.000000
   34.650000    112.000000
   34.700000     83.000000
   34.750000    104.000000
   34.800000     94.000000
   34.850000     96.000000
   34.900000     97.000000
   34.950000     93.000000
   35.000000     92.000000
   35.050000     93.000000
   35.100000    102.000000
   35.150000     81.000000
   35.200000     95.000000
   35.250000    102.000000
   35.300000     98.000000
   35.350000     87.000000
   35.400000     92.000000
   35.450000    100.000000
   35.500000     99.000000
   35.550000     95.000000
   35.600000     95.000000
   35.650000    106.000000
   35.700000     95.000000
   35.750000    102.000000
   35.800000     88.000000
   35.850000    109.000000
   35.900000    106.000000
   35.950000    109.000000
   36.000000    109.000000
   36.050000    103.000000
   36.100000     95.000000
   36.150000     97.000000
   36.200000     95.000000
   36.250000    106.000000
   36.300000     94.000000
   36.350000     82.000000
   36.400000    101.000000
   36.450000     88.000000
   36.500000     92.000000
   36.550000     89.000000
   36.600000    102.000000
   36.650000    100.000000
   36.700000     90.000000
   36.750000     87.000000
   36.800000    102.000000
   36.850000    108.000000
   36.900000    112.000000
   36.950000     95.000000
   37.000000    101.000000
   37.050000    105.000000
   37.100000     83.000000
   37.150000     90.000000
   37.200000    104.000000
   37.250000     94.000000
   37.300000     95.000000
   37.350000    100.000000
   37.400000     94.000000
   37.450000     94.000000
   37.500000     82.000000
   37.550000     88.000000
   37.600000     92.000000
   37.650000     80.000000
   37.700000     87.000000
   37.750000     91.000000
   37.800000    111.000000
   37.850000     93.000000
   37.900000     96.000000
   37.950000    101.000000
   38.000000     99.000000
   38.050000     79.000000
   38.100000     76.000000
   38.150000     96.000000
   38.200000    102.000000
   38.250000     86.000000
   38.300000     87.000000
   38.350000    100.000000
   38.400000    105.000000
   38.450000     94.000000
   38.500000    100.000000
   38.550000    102.000000
   38.600000     93.000000
   38.650000    106.000000
   38.700000     96.000000
   38.750000    119.000000
   38.800000     93.000000
   38.850000     86.000000
   38.900000    106.000000
   38.950000     88.000000
   39.000000    104.000000
   39.050000     97.000000
   39.100000     97.000000
   39.150000    104.000000
   39.200000    104.000000
   39.250000     94.000000
   39.300000     88.000000
   39.350000     97.000000
   39.400000    109.000000
   39.450000     97.000000
   39.500000     89.000000
   39.550000    102.000000
   39.600000    105.000000
   39.650000     98.000000
   39.700000    107.000000
   39.750000     91.000000
   39.800000     96.000000
   39.850000     94.000000
   39.900000    109.000000
   39.950000     92.000000
   40.000000     94.000000
   40.050000    100.000000
   40.100000     83.000000
   40.150000     91.000000
   40.200000     99.000000
   40.250000     96.000000
   40.300000     97.000000
   40.350000    105.000000
   40.400000     82.000000
   40.450000    107.000000
   40.500000    106.000000
   40.550000    110.000000
   40.600000     98.000000
   40.650000     90.000000
   40.700000     93.000000
   40.750000     91.000000
   40.800000     88.000000
   40.850000    103.000000
   40.900000     89.000000
   40.950000     81.000000
   41.000000    104.000000
   41.050000     89.000000
   41.100000     94.000000
   41.150000    107.000000
   41.200000     80.000000
   41.250000     99.000000
   41.300000     92.000000
   41.350000    104.000000
   41.400000    121.000000
   41.450000     86.000000
   41.500000    125.000000
   41.550000     98.000000
   41.600000    116.000000
   41.650000    111.000000
   41.700000    120.000000
   41.750000     90.000000
   41.800000    109.000000
   41.850000     95.000000
   41.900000     94.000000
   41.950000    121.000000
   42.000000    112.000000
   42.050000    109.000000
   42.100000    108.000000
   42.150000    107.000000
   42.200000    107.000000
   42.250000    114.000000
   42.300000    108.000000
   42.350000    112.000000
   42.400000     98.000000
   42.450000    117.000000
   42.500000    106.000000
   42.550000    114.000000
   42.600000    115.000000
   42.650000    126.000000
   42.700000    101.000000
   42.750000    123.000000
   42.800000    143.000000
   42.850000    152.000000
   42.900000    154.000000
   42.950000    122.000000
   43.000000    140.000000
   43.050000    137.000000
   43.100000    134.000000
   43.150000    146.000000
   43.200000    138.000000
   43.250000    118.000000
   43.300000    102.000000
   43.350000    136.000000
   43.400000    164.000000
   43.450000    130.000000
   43.500000    134.000000
   43.550000    136.000000
   43.600000    114.000000
   43.650000    114.000000
   43.700000    121.000000
   43.750000    129.000000
   43.800000    148.000000
   43.850000    121.000000
   43.900000    119.000000
   43.950000    143.000000
   44.000000    150.000000
   44.050000    159.000000
   44.100000    157.000000
   44.150000    158.000000
   44.200000    142.000000
   44.250000    134.000000
   44.300000    163.000000
   44.350000    149.000000
   44.400000    162.000000
   44.450000    190.000000
   44.500000    167.000000
   44.550000    165.000000
   44.600000    191.000000
   44.650000    167.000000
   44.700000    150.000000
   44.750000    161.000000
   44.800000    193.000000
   44.850000    183.000000
   44.900000    194.000000
   44.950000    202.000000
   45.000000    217.000000
   45.050000    211.000000
   45.100000    210.000000
   45.150000    240.000000
   45.200000    244.000000
   45.250000    232.000000
   45.300000    247.000000
   45.350000    266.000000
   45.400000    246.000000
   45.450000    286.000000
   45.500000    290.000000
   45.550000    279.000000
   45.600000    317.000000
   45.650000    397.000000
   45.700000    359.000000
   45.750000    378.000000
   45.800000    403.000000
   45.850000    435.000000
   45.900000    497.000000
   45.950000    556.000000
   46.000000    610.000000
   46.050000    657.000000
   46.100000    772.000000
   46.150000    827.000000
   46.200000    950.000000
   46.250000   1119.000000
   46.300000   1252.000000
   46.350000   1503.000000
   46.400000   1687.000000
   46.450000   2003.000000
   46.500000   2265.000000
   46.550000   2795.000000
   46.600000   3306.000000
   46.650000   4012.000000
   46.700000   4666.000000
   46.750000   5312.000000
   46.800000   6336.000000
   46.850000   7256.000000
   46.900000   7965.000000
   46.950000   8631.000000
   47.000000   8946.000000
   47.050000   8894.000000
   47.100000   8711.000000
   47.150000   7936.000000
   47.200000   7230.000000
   47.250000   6460.000000
   47.300000   5614.000000
   47.350000   4895.000000
   47.400000   4181.000000
   47.450000   3538.000000
   47.500000   2994.000000
   47.550000   2503.000000
   47.600000   2144.000000
   47.650000   1778.000000
   47.700000   1533.000000
   47.750000   1371.000000
   47.800000   1198.000000
   47.850000    965.000000
   47.900000    896.000000
   47.950000    797.000000
   48.000000    722.000000
   48.050000    667.000000
   48.100000    589.000000
   48.150000    549.000000
   48.200000    476.000000
   48.250000    439.000000
   48.300000    403.000000
   48.350000    404.000000
   48.400000    344.000000
   48.450000    353.000000
   48.500000    292.000000
   48.550000    315.000000
   48.600000    264.000000
   48.650000    266.000000
   48.700000    242.000000
   48.750000    234.000000
   48.800000    203.000000
   48.850000    207.000000
   48.900000    232.000000
   48.950000    206.000000
   49.000000    201.000000
   49.050000    204.000000
   49.100000    192.000000
   49.150000    174.000000
   49.200000    164.000000
   49.250000    164.000000
   49.300000    171.000000
   49.350000    130.000000
   49.400000    163.000000
   49.450000    161.000000
   49.500000    127.000000
   49.550000    131.000000
   49.600000    140.000000
   49.650000    146.000000
   49.700000    118.000000
   49.750000    109.000000
   49.800000    148.000000
   49.850000    118.000000
   49.900000    144.000000
   49.950000    108.000000
   50.000000    119.000000
   50.050000    119.000000
   50.100000    108.000000
   50.150000    103.000000
   50.200000    123.000000
   50.250000     99.000000
   50.300000    106.000000
   50.350000    137.000000
   50.400000    118.000000
   50.450000     98.000000
   50.500000    130.000000
   50.550000     91.000000
   50.600000    101.000000
   50.650000    111.000000
   50.700000    111.000000
   50.750000    105.000000
   50.800000     99.000000
   50.850000    130.000000
   50.900000     90.000000
   50.950000    104.000000
   51.000000     98.000000
   51.050000    100.000000
   51.100000    106.000000
   51.150000     96.000000
   51.200000    106.000000
   51.250000     97.000000
   51.300000    104.000000
   51.350000     95.000000
   51.400000     85.000000
   51.450000     88.000000
   51.500000    109.000000
   51.550000     89.000000
   51.600000    115.000000
   51.650000     89.000000
   51.700000    100.000000
   51.750000     78.000000
   51.800000     98.000000
   51.850000    101.000000
   51.900000    111.000000
   51.950000    100.000000
   52.000000    107.000000
   52.050000    103.000000
   52.100000     87.000000
   52.150000    101.000000
   52.200000    100.000000
   52.250000     84.000000
   52.300000     92.000000
   52.350000     92.000000
   52.400000     97.000000
   52.450000    108.000000
   52.500000    103.000000
   52.550000    101.000000
   52.600000     90.000000
   52.650000     90.000000
   52.700000    101.000000
   52.750000     83.000000
   52.800000    102.000000
   52.850000     87.000000
   52.900000    102.000000
   52.950000     92.000000
   53.000000     98.000000
   53.050000    110.000000
   53.100000    104.000000
   53.150000    100.000000
   53.200000     91.000000
   53.250000     82.000000
   53.300000    112.000000
   53.350000    111.000000
   53.400000    109.000000
   53.450000    109.000000
   53.500000    105.000000
   53.550000    122.000000
   53.600000    105.000000
   53.650000    101.000000
   53.700000    124.000000
   53.750000    124.000000
   53.800000    138.000000
   53.850000    123.000000
   53.900000    129.000000
   53.950000    132.000000
   54.000000    130.000000
   54.050000    134.000000
   54.100000    154.000000
   54.150000    127.000000
   54.200000    162.000000
   54.250000    150.000000
   54.300000    155.000000
   54.350000    159.000000
   54.400000    173.000000
   54.450000    181.000000
   54.500000    200.000000
   54.550000    208.000000
   54.600000    234.000000
   54.650000    231.000000
   54.700000    227.000000
   54.750000    268.000000
   54.800000    267.000000
   54.850000    337.000000
   54.900000    323.000000
   54.950000    387.000000
   55.000000    389.000000
   55.050000    475.000000
   55.100000    545.000000
   55.150000    611.000000
   55.200000    667.000000
   55.250000    842.000000
   55.300000    916.000000
   55.350000   1142.000000
   55.400000   1204.000000
   55.450000   1440.000000
   55.500000   1667.000000
   55.550000   1913.000000
   55.600000   2072.000000
   55.650000   2342.000000
   55.700000   2529.000000
   55.750000   2710.000000
   55.800000   2585.000000
   55.850000   2628.000000
   55.900000   2363.000000
   55.950000   2354.000000
   56.000000   2117.000000
   56.050000   1949.000000
   56.100000   1632.000000
   56.150000   1403.000000
   56.200000   1236.000000
   56.250000   1050.000000
   56.300000    930.000000
   56.350000    766.000000
   56.400000    708.000000
   56.450000    592.000000
   56.500000    501.000000
   56.550000    482.000000
   56.600000    396.000000
   56.650000    398.000000
   56.700000    314.000000
   56.750000    314.000000
   56.800000    290.000000
   56.850000    239.000000
   56.900000    199.000000
   56.950000    180.000000
   57.000000    201.000000
   57.050000    177.000000
   57.100000    160.000000
   57.150000    145.000000
   57.200000    132.000000
   57.250000    147.000000
   57.300000    124.000000
   57.350000    123.000000
   57.400000    116.000000
   57.450000    104.000000
   57.500000    120.000000
   57.550000    129.000000
   57.600000    117.000000
   57.650000     96.000000
   57.700000    120.000000
   57.750000    102.000000
   57.800000     97.000000
   57.850000    101.000000
   57.900000     94.000000
   57.950000    103.000000
   58.000000    119.000000
   58.050000     97.000000
   58.100000     93.000000
   58.150000     97.000000
   58.200000    106.000000
   58.250000    103.000000
   58.300000     97.000000
   58.350000     98.000000
   58.400000    113.000000
   58.450000    108.000000
   58.500000    106.000000
   58.550000    121.000000
   58.600000    105.000000
   58.650000     95.000000
   58.700000     70.000000
   58.750000     92.000000
   58.800000     79.000000
   58.850000    101.000000
   58.900000     88.000000
   58.950000     72.000000
   59.000000     90.000000
   59.050000     92.000000
   59.100000     76.000000
   59.150000     79.000000
   59.200000     71.000000
   59.250000     68.000000
   59.300000     82.000000
   59.350000     78.000000
   59.400000     72.000000
   59.450000     60.000000
   59.500000     72.000000
   59.550000     73.000000
   59.600000     69.000000
   59.650000     81.000000
   59.700000     59.000000
   59.750000     63.000000
   59.800000     72.000000
   59.850000     57.000000
   59.900000     60.000000
   59.950000     58.000000
   60.000000     72.000000
   60.050000     87.000000
   60.100000     61.000000
   60.150000     49.000000
   60.200000     64.000000
   60.250000     61.000000
   60.300000     58.000000
   60.350000     71.000000
   60.400000     62.000000
   60.450000     55.000000
   60.500000     62.000000
   60.550000     55.000000
   60.600000     53.000000
   60.650000     58.000000
   60.700000     60.000000
   60.750000     62.000000
   60.800000     68.000000
   60.850000     55.000000
   60.900000     45.000000
   60.950000     55.000000
   61.000000     63.000000
   61.050000     53.000000
   61.100000     61.000000
   61.150000     57.000000
   61.200000     59.000000
   61.250000     44.000000
   61.300000     61.000000
   61.350000     58.000000
   61.400000     55.000000
   61.450000     65.000000
   61.500000     73.000000
   61.550000     54.000000
   61.600000     55.000000
   61.650000     59.000000
   61.700000     62.000000
   61.750000     68.000000
   61.800000     63.000000
   61.850000     55.000000
   61.900000     59.000000
   61.950000     36.000000
   62.000000     49.000000
   62.050000     57.000000
   62.100000     58.000000
   62.150000     61.000000
   62.200000     59.000000
   62.250000     69.000000
   62.300000     61.000000
   62.350000     70.000000
   62.400000     72.000000
   62.450000     63.000000
   62.500000     72.000000
   62.550000     53.000000
   62.600000     52.000000
   62.650000     48.000000
   62.700000     52.000000
   62.750000     60.000000
   62.800000     60.000000
   62.850000     49.000000
   62.900000     57.000000
   62.950000     59.000000
   63.000000     53.000000
   63.050000     51.000000
   63.100000     66.000000
   63.150000     49.000000
   63.200000     50.000000
   63.250000     41.000000
   63.300000     57.000000
   63.350000     45.000000
   63.400000     50.000000
   63.450000     56.000000
   63.500000     51.000000
   63.550000     57.000000
   63.600000     56.000000
   63.650000     53.000000
   63.700000     50.000000
   63.750000     52.000000
   63.800000     60.000000
   63.850000     53.000000
   63.900000     62.000000
   63.950000     54.000000
   64.000000     44.000000
   64.050000     48.000000
   64.100000     52.000000
   64.150000     61.000000
   64.200000     47.000000
   64.250000     48.000000
   64.300000     49.000000
   64.350000     57.000000
   64.400000     61.000000
   64.450000     43.000000
   64.500000     52.000000
   64.550000     52.000000
   64.600000     47.000000
   64.650000     69.000000
   64.700000     46.000000
   64.750000     50.000000
   64.800000     53.000000
   64.850000     46.000000
   64.900000     56.000000
   64.950000     38.000000
   65.000000     65.000000
   65.050000     59.000000
   65.100000     52.000000
   65.150000     42.000000
   65.200000     52.000000
   65.250000     52.000000
   65.300000     54.000000
   65.350000     52.000000
   65.400000     57.000000
   65.450000     49.000000
   65.500000     53.000000
   65.550000     62.000000
   65.600000     57.000000
   65.650000     56.000000
   65.700000     63.000000
   65.750000     54.000000
   65.800000     64.000000
   65.850000     60.000000
   65.900000     58.000000
   65.950000     67.000000
   66.000000     43.000000
   66.050000     59.000000
   66.100000     42.000000
   66.150000     55.000000
   66.200000     79.000000
   66.250000     48.000000
   66.300000     41.000000
   66.350000     52.000000
   66.400000     47.000000
   66.450000     57.000000
   66.500000     70.000000
   66.550000     48.000000
   66.600000     67.000000
   66.650000     62.000000
   66.700000     61.000000
   66.750000     57.000000
   66.800000     76.000000
   66.850000     62.000000
   66.900000     67.000000
   66.950000     57.000000
   67.000000     64.000000
   67.050000     62.000000
   67.100000     72.000000
   67.150000     96.000000
   67.200000     64.000000
   67.250000     90.000000
   67.300000     93.000000
   67.350000     78.000000
   67.400000     97.000000
   67.450000    104.000000
   67.500000     90.000000
   67.550000    100.000000
   67.600000    107.000000
   67.650000    114.000000
   67.700000    122.000000
   67.750000    130.000000
   67.800000    170.000000
   67.850000    159.000000
   67.900000    168.000000
   67.950000    217.000000
   68.000000    229.000000
   68.050000    244.000000
   68.100000    252.000000
   68.150000    303.000000
   68.200000    372.000000
   68.250000    428.000000
   68.300000    479.000000
   68.350000    547.000000
   68.400000    604.000000
   68.450000    720.000000
   68.500000    764.000000
   68.550000    808.000000
   68.600000    903.000000
   68.650000    926.000000
   68.700000    911.000000
   68.750000    947.000000
   68.800000    869.000000
   68.850000    770.000000
   68.900000    788.000000
   68.950000    697.000000
   69.000000    644.000000
   69.050000    552.000000
   69.100000    497.000000
   69.150000    429.000000
   69.200000    388.000000
   69.250000    339.000000
   69.300000    296.000000
   69.350000    270.000000
   69.400000    252.000000
   69.450000    204.000000
   69.500000    194.000000
   69.550000    177.000000
   69.600000    159.000000
   69.650000    146.000000
   69.700000    131.000000
   69.750000    152.000000
   69.800000    100.000000
   69.850000    119.000000
   69.900000    101.000000
   69.950000    115.000000
   70.000000     89.000000
   70.050000    119.000000
   70.100000     83.000000
   70.150000     92.000000
   70.200000     93.000000
   70.250000     75.000000
   70.300000     68.000000
   70.350000     84.000000
   70.400000     70.000000
   70.450000     66.000000
   70.500000     85.000000
   70.550000     67.000000
   70.600000     70.000000
   70.650000     56.000000
   70.700000     76.000000
   70.750000     62.000000
   70.800000     79.000000
   70.850000     74.000000
   70.900000     60.000000
   70.950000     58.000000
   71.000000     64.000000
   71.050000     56.000000
   71.100000     74.000000
   71.150000     52.000000
   71.200000     58.000000
   71.250000     57.000000
   71.300000     53.000000
   71.350000     60.000000
   71.400000     58.000000
   71.450000     54.000000
   71.500000     55.000000
   71.550000     62.000000
   71.600000     61.000000
   71.650000     51.000000
   71.700000     59.000000
   71.750000     53.000000
   71.800000     54.000000
   71.850000     55.000000
   71.900000     62.000000
   71.950000     57.000000
   72.000000     48.000000
   72.050000     55.000000
   72.100000     62.000000
   72.150000     51.000000
   72.200000     49.000000
   72.250000     55.000000
   72.300000     67.000000
   72.350000     53.000000
   72.400000     55.000000
   72.450000     50.000000
   72.500000     61.000000
   72.550000     67.000000
   72.600000     67.000000
   72.650000     50.000000
   72.700000     60.000000
   72.750000     51.000000
   72.800000     59.000000
   72.850000     57.000000
   72.900000     59.000000
   72.950000     58.000000
   73.000000     66.000000
   73.050000     61.000000
   73.100000     61.000000
   73.150000     67.000000
   73.200000     55.000000
   73.250000     46.000000
   73.300000     67.000000
   73.350000     82.000000
   73.400000     72.000000
   73.450000     72.000000
   73.500000     69.000000
   73.550000     69.000000
   73.600000     51.000000
   73.650000     76.000000
   73.700000     66.000000
   73.750000     74.000000
   73.800000     63.000000
   73.850000     73.000000
   73.900000     76.000000
   73.950000     71.000000
   74.000000     73.000000
   74.050000     75.000000
   74.100000     81.000000
   74.150000     71.000000
   74.200000     75.000000
   74.250000     75.000000
   74.300000     77.000000
   74.350000     92.000000
   74.400000     94.000000
   74.450000    100.000000
   74.500000     96.000000
   74.550000    109.000000
   74.600000    109.000000
   74.650000    108.000000
   74.700000    105.000000
   74.750000    110.000000
   74.800000    135.000000
   74.850000    149.000000
   74.900000    160.000000
   74.950000    161.000000
   75.000000    194.000000
   75.050000    211.000000
   75.100000    197.000000
   75.150000    228.000000
   75.200000    243.000000
   75.250000    272.000000
   75.300000    294.000000
   75.350000    279.000000
   75.400000    368.000000
   75.450000    374.000000
   75.500000    460.000000
   75.550000    503.000000
   75.600000    535.000000
   75.650000    552.000000
   75.700000    603.000000
   75.750000    639.000000
   75.800000    688.000000
   75.850000    710.000000
   75.900000    704.000000
   75.950000    728.000000
   76.000000    660.000000
   76.050000    657.000000
   76.100000    632.000000
   76.150000    544.000000
   76.200000    546.000000
   76.250000    484.000000
   76.300000    459.000000
   76.350000    445.000000
   76.400000    387.000000
   76.450000    344.000000
   76.500000    322.000000
   76.550000    311.000000
   76.600000    270.000000
   76.650000    264.000000
   76.700000    217.000000
   76.750000    218.000000
   76.800000    187.000000
   76.850000    189.000000
   76.900000    171.000000
   76.950000    184.000000
   77.000000    157.000000
   77.050000    143.000000
   77.100000    141.000000
   77.150000    122.000000
   77.200000    115.000000
   77.250000    122.000000
   77.300000    116.000000
   77.350000    113.000000
   77.400000    105.000000
   77.450000    114.000000
   77.500000     81.000000
   77.550000    106.000000
   77.600000     98.000000
   77.650000    108.000000
   77.700000     99.000000
   77.750000    126.000000
   77.800000    116.000000
   77.850000    115.000000
   77.900000    117.000000
   77.950000    112.000000
   78.000000    114.000000
   78.050000    116.000000
   78.100000    127.000000
   78.150000    128.000000
   78.200000    106.000000
   78.250000    115.000000
   78.300000    123.000000
   78.350000    127.000000
   78.400000    117.000000
   78.450000     90.000000
   78.500000    101.000000
   78.550000    112.000000
   78.600000    108.000000
   78.650000    101.000000
   78.700000    101.000000
   78.750000     88.000000
   78.800000     82.000000
   78.850000     89.000000
   78.900000     74.000000
   78.950000     87.000000
   79.000000     66.000000
   79.050000     74.000000
   79.100000     71.000000
   79.150000     65.000000
   79.200000     62.000000
   79.250000     68.000000
   79.300000     60.000000
   79.350000     67.000000
   79.400000     61.000000
   79.450000     71.000000
   79.500000     59.000000
   79.550000     64.000000
   79.600000     68.000000
   79.650000     54.000000
   79.700000     59.000000
   79.750000     59.000000
   79.800000     54.000000
   79.850000     63.000000
   79.900000     54.000000
   79.950000     56.000000
   80.000000     62.000000
   80.050000     71.000000
   80.100000     65.000000
   80.150000     66.000000
   80.200000     41.000000
   80.250000     58.000000
   80.300000     51.000000
   80.350000     67.000000
   80.400000     59.000000
   80.450000     59.000000
   80.500000     52.000000
   80.550000     65.000000
   80.600000     58.000000
   80.650000     67.000000
   80.700000     61.000000
   80.750000     53.000000
   80.800000     49.000000
   80.850000     64.000000
   80.900000     57.000000
   80.950000     53.000000
   81.000000     36.000000
   81.050000     48.000000
   81.100000     57.000000
   81.150000     49.000000
   81.200000     49.000000
   81.250000     59.000000
   81.300000     50.000000
   81.350000     45.000000
   81.400000     61.000000
   81.450000     57.000000
   81.500000     68.000000
   81.550000     47.000000
   81.600000     50.000000
   81.650000     51.000000
   81.700000     68.000000
   81.750000     46.000000
   81.800000     54.000000
   81.850000     54.000000
   81.900000     47.000000
   81.950000     65.000000
   82.000000     43.000000
   82.050000     52.000000
   82.100000     58.000000
   82.150000     54.000000
   82.200000     61.000000
   82.250000     55.000000
   82.300000     62.000000
   82.350000     49.000000
   82.400000     63.000000
   82.450000     51.000000
   82.500000     52.000000
   82.550000     64.000000
   82.600000     54.000000
   82.650000     54.000000
   82.700000     44.000000
   82.750000     66.000000
   82.800000     59.000000
   82.850000     67.000000
   82.900000     64.000000
   82.950000     70.000000
   83.000000     53.000000
   83.050000     65.000000
   83.100000     68.000000
   83.150000     71.000000
   83.200000     71.000000
   83.250000     42.000000
   83.300000     61.000000
   83.350000     54.000000
   83.400000     45.000000
   83.450000     70.000000
   83.500000     64.000000
   83.550000     65.000000
   83.600000     63.000000
   83.650000     53.000000
   83.700000     77.000000
   83.750000     65.000000
   83.800000     73.000000
   83.850000     66.000000
   83.900000     67.000000
   83.950000     62.000000
   84.000000     59.000000
   84.050000     68.000000
   84.100000     74.000000
   84.150000     63.000000
   84.200000     72.000000
   84.250000     76.000000
   84.300000     77.000000
   84.350000     58.000000
   84.400000     57.000000
   84.450000     71.000000
   84.500000     73.000000
   84.550000     74.000000
   84.600000     71.000000
   84.650000     67.000000
   84.700000     81.000000
   84.750000     81.000000
   84.800000     85.000000
   84.850000     64.000000
   84.900000     79.000000
   84.950000     71.000000
   85.000000     86.000000
   85.050000     81.000000
   85.100000     80.000000
   85.150000     88.000000
   85.200000    108.000000
   85.250000     98.000000
   85.300000     84.000000
   85.350000     92.000000
   85.400000     98.000000
   85.450000    111.000000
   85.500000    115.000000
   85.550000    123.000000
   85.600000    112.000000
   85.650000    138.000000
   85.700000    130.000000
   85.750000    145.000000
   85.800000    127.000000
   85.850000    126.000000
   85.900000    144.000000
   85.950000    161.000000
   86.000000    180.000000
   86.050000    188.000000
   86.100000    163.000000
   86.150000    202.000000
   86.200000    225.000000
   86.250000    220.000000
   86.300000    253.000000
   86.350000    266.000000
   86.400000    267.000000
   86.450000    286.000000
   86.500000    317.000000
   86.550000    332.000000
   86.600000    359.000000
   86.650000    403.000000
   86.700000    424.000000
   86.750000    479.000000
   86.800000    468.000000
   86.850000    529.000000
   86.900000    574.000000
   86.950000    670.000000
   87.000000    721.000000
   87.050000    775.000000
   87.100000    830.000000
   87.150000    845.000000
   87.200000   1002.000000
   87.250000   1030.000000
   87.300000   1077.000000
   87.350000   1027.000000
   87.400000   1057.000000
   87.450000   1050.000000
   87.500000   1102.000000
   87.550000   1054.000000
   87.600000   1036.000000
   87.650000    968.000000
   87.700000    985.000000
   87.750000    853.000000
   87.800000    848.000000
   87.850000    753.000000
   87.900000    719.000000
   87.950000    641.000000
   88.000000    595.000000
   88.050000    584.000000
   88.100000    507.000000
   88.150000    468.000000
   88.200000    403.000000
   88.250000    360.000000
   88.300000    373.000000
   88.350000    319.000000
   88.400000    308.000000
   88.450000    303.000000
   88.500000    258.000000
   88.550000    284.000000
   88.600000    235.000000
   88.650000    218.000000
   88.700000    195.000000
   88.750000    206.000000
   88.800000    193.000000
   88.850000    173.000000
   88.900000    163.000000
   88.950000    158.000000
   89.000000    174.000000
   89.050000    121.000000
   89.100000    145.000000
   89.150000    134.000000
   89.200000    139.000000
   89.250000    125.000000
   89.300000    113.000000
   89.350000    119.000000
   89.400000    105.000000
   89.450000    104.000000
   89.500000    109.000000
   89.550000    104.000000
   89.600000     95.000000
   89.650000     90.000000
   89.700000     84.000000
   89.750000    100.000000
   89.800000     77.000000
   89.850000     85.000000
   89.900000     96.000000
   89.950000     98.000000
   90.000000     86.000000
   90.050000     84.000000
   90.100000     91.000000
   90.150000     86.000000
   90.200000     72.000000
   90.250000     68.000000
   90.300000     66.000000
   90.350000     76.000000
   90.400000     80.000000
   90.450000     67.000000
   90.500000     66.000000
   90.550000     79.000000
   90.600000     53.000000
   90.650000     76.000000
   90.700000     72.000000
   90.750000     60.000000
   90.800000     70.000000
   90.850000     81.000000
   90.900000     69.000000
   90.950000     64.000000
   91.000000     68.000000
   91.050000     58.000000
   91.100000     64.000000
   91.150000     57.000000
   91.200000     71.000000
   91.250000     61.000000
   91.300000     71.000000
   91.350000     89.000000
   91.400000     71.000000
   91.450000     76.000000
   91.500000     75.000000
   91.550000     63.000000
   91.600000     58.000000
   91.650000     70.000000
   91.700000     71.000000
   91.750000     90.000000
   91.800000     73.000000
   91.850000     65.000000
   91.900000     63.000000
   91.950000     78.000000
   92.000000     74.000000
   92.050000     68.000000
   92.100000     65.000000
   92.150000     82.000000
   92.200000     69.000000
   92.250000     80.000000
   92.300000     89.000000
   92.350000     77.000000
   92.400000     87.000000
   92.450000     86.000000
   92.500000     91.000000
   92.550000     73.000000
   92.600000     75.000000
   92.650000     91.000000
   92.700000     92.000000
   92.750000     85.000000
   92.800000    103.000000
   92.850000     90.000000
   92.900000     78.000000
   92.950000    107.000000
   93.000000    102.000000
   93.050000    110.000000
   93.100000    130.000000
   93.150000    125.000000
   93.200000    145.000000
   93.250000    155.000000
   93.300000    140.000000
   93.350000    154.000000
   93.400000    163.000000
   93.450000    187.000000
   93.500000    202.000000
   93.550000    207.000000
   93.600000    227.000000
   93.650000    230.000000
   93.700000    271.000000
   93.750000    285.000000
   93.800000    288.000000
   93.850000    297.000000
   93.900000    351.000000
   93.950000    338.000000
   94.000000    401.000000
   94.050000    432.000000
   94.100000    458.000000
   94.150000    465.000000
   94.200000    406.000000
   94.250000    471.000000
   94.300000    450.000000
   94.350000    492.000000
   94.400000    440.000000
   94.450000    467.000000
   94.500000    408.000000
   94.550000    413.000000
   94.600000    363.000000
   94.650000    355.000000
   94.700000    369.000000
   94.750000    320.000000
   94.800000    313.000000
   94.850000    276.000000
   94.900000    249.000000
   94.950000    196.000000
   95.000000    226.000000
   95.050000    208.000000
   95.100000    192.000000
   95.150000    195.000000
   95.200000    161.000000
   95.250000    164.000000
   95.300000    159.000000
   95.350000    134.000000
   95.400000    119.000000
   95.450000    124.000000
   95.500000     98.000000
   95.550000    121.000000
   95.600000    103.000000
   95.650000     93.000000
   95.700000    103.000000
   95.750000     86.000000
   95.800000     87.000000
   95.850000     79.000000
   95.900000     67.000000
   95.950000     81.000000
   96.000000     89.000000
   96.050000     79.000000
   96.100000     72.000000
   96.150000     73.000000
   96.200000     68.000000
   96.250000     88.000000
   96.300000     78.000000
   96.350000     76.000000
   96.400000     71.000000
   96.450000     72.000000
   96.500000     58.000000
   96.550000     63.000000
   96.600000     51.000000
   96.650000     52.000000
   96.700000     59.000000
   96.750000     58.000000
   96.800000     71.000000
   96.850000     56.000000
   96.900000     62.000000
   96.950000     56.000000
   97.000000     52.000000
   97.050000     62.000000
   97.100000     48.000000
   97.150000     61.000000
   97.200000     60.000000
   97.250000     66.000000
   97.300000     64.000000
   97.350000     53.000000
   97.400000     52.000000
   97.450000     61.000000
   97.500000     57.000000
   97.550000     42.000000
   97.600000     51.000000
   97.650000     60.000000
   97.700000     58.000000
   97.750000     41.000000
   97.800000     50.000000
   97.850000     56.000000
   97.900000     55.000000
   97.950000     53.000000
   98.000000     51.000000
   98.050000     44.000000
   98.100000     35.000000
   98.150000     60.000000
   98.200000     57.000000
   98.250000     45.000000
   98.300000     55.000000
   98.350000     40.000000
   98.400000     45.000000
   98.450000     54.000000
   98.500000     57.000000
   98.550000     54.000000
   98.600000     48.000000
   98.650000     51.000000
   98.700000     40.000000
   98.750000     37.000000
   98.800000     60.000000
   98.850000     39.000000
   98.900000     49.000000
   98.950000     57.000000
   99.000000     43.000000
   99.050000     52.000000
   99.100000     56.000000
   99.150000     51.000000
   99.200000     43.000000
   99.250000     52.000000
   99.300000     41.000000
   99.350000     57.000000
   99.400000     52.000000
   99.450000     44.000000
   99.500000     41.000000
   99.550000     43.000000
   99.600000     44.000000
   99.650000     54.000000
   99.700000     55.000000
   99.750000     47.000000
   99.800000     49.000000
   99.850000     56.000000
   99.900000     52.000000
   99.950000     39.000000
  100.000000     32.000000
  100.050000     48.000000
  100.100000     35.000000
  100.150000     45.000000
  100.200000     53.000000
  100.250000     42.000000
  100.300000     37.000000
  100.350000     45.000000
  100.400000     38.000000
  100.450000     47.000000
  100.500000     42.000000
  100.550000     36.000000
  100.600000     39.000000
  100.650000     48.000000
  100.700000     45.000000
  100.750000     40.000000
  100.800000     58.000000
  100.850000     53.000000
  100.900000     50.000000
  100.950000     61.000000
  101.000000     49.000000
  101.050000     41.000000
  101.100000     58.000000
  101.150000     51.000000
  101.200000     42.000000
  101.250000     53.000000
  101.300000     56.000000
  101.350000     56.000000
  101.400000     49.000000
  101.450000     61.000000
  101.500000     46.000000
  101.550000     44.000000
  101.600000     58.000000
  101.650000     45.000000
  101.700000     56.000000
  101.750000     50.000000
  101.800000     56.000000
  101.850000     40.000000
  101.900000     58.000000
  101.950000     47.000000
  102.000000     46.000000
  102.050000     60.000000
  102.100000     52.000000
  102.150000     45.000000
  102.200000     51.000000
  102.250000     45.000000
  102.300000     61.000000
  102.350000     53.000000
  102.400000     51.000000
  102.450000     44.000000
  102.500000     44.000000
  102.550000     52.000000
  102.600000     58.000000
  102.650000     53.000000
  102.700000     51.000000
  102.750000     54.000000
  102.800000     62.000000
  102.850000     53.000000
  102.900000     54.000000
  102.950000     59.000000
  103.000000     60.000000
  103.050000     60.000000
  103.100000     54.000000
  103.150000     43.000000
  103.200000     53.000000
  103.250000     54.000000
  103.300000     48.000000
  103.350000     70.000000
  103.400000     75.000000
  103.450000     53.000000
  103.500000     63.000000
  103.550000     65.000000
  103.600000     81.000000
  103.650000     82.000000
  103.700000     61.000000
  103.750000     59.000000
  103.800000     74.000000
  103.850000     79.000000
  103.900000     87.000000
  103.950000     64.000000
  104.000000     73.000000
  104.050000     75.000000
  104.100000     69.000000
  104.150000     96.000000
  104.200000     99.000000
  104.250000     81.000000
  104.300000     85.000000
  104.350000     85.000000
  104.400000    102.000000
  104.450000     90.000000
  104.500000     91.000000
  104.550000    100.000000
  104.600000    111.000000
  104.650000    121.000000
  104.700000    112.000000
  104.750000    133.000000
  104.800000    146.000000
  104.850000    144.000000
  104.900000    148.000000
  104.950000    144.000000
  105.000000    169.000000
  105.050000    164.000000
  105.100000    173.000000
  105.150000    185.000000
  105.200000    184.000000
  105.250000    202.000000
  105.300000    203.000000
  105.350000    229.000000
  105.400000    233.000000
  105.450000    246.000000
  105.500000    261.000000
  105.550000    265.000000
  105.600000    311.000000
  105.650000    286.000000
  105.700000    294.000000
  105.750000    315.000000
  105.800000    283.000000
  105.850000    290.000000
  105.900000    341.000000
  105.950000    297.000000
  106.000000    316.000000
  106.050000    293.000000
  106.100000    320.000000
  106.150000    267.000000
  106.200000    294.000000
  106.250000    302.000000
  106.300000    248.000000
  106.350000    255.000000
  106.400000    240.000000
  106.450000    237.000000
  106.500000    204.000000
  106.550000    202.000000
  106.600000    194.000000
  106.650000    181.000000
  106.700000    171.000000
  106.750000    181.000000
  106.800000    179.000000
  106.850000    149.000000
  106.900000    151.000000
  106.950000    145.000000
  107.000000    127.000000
  107.050000    125.000000
  107.100000    114.000000
  107.150000    129.000000
  107.200000    117.000000
  107.250000    138.000000
  107.300000    103.000000
  107.350000    110.000000
  107.400000     96.000000
  107.450000    108.000000
  107.500000     89.000000
  107.550000     93.000000
  107.600000     84.000000
  107.650000    104.000000
  107.700000     71.000000
  107.750000     91.000000
  107.800000     86.000000
  107.850000     97.000000
  107.900000     75.000000
  107.950000     81.000000
  108.000000     90.000000
  108.050000     71.000000
  108.100000     79.000000
  108.150000     72.000000
  108.200000     67.000000
  108.250000     73.000000
  108.300000     78.000000
  108.350000     71.000000
  108.400000     71.000000
  108.450000     72.000000
  108.500000     68.000000
  108.550000     51.000000
  108.600000     70.000000
  108.650000     75.000000
  108.700000     73.000000
  108.750000     61.000000
  108.800000     71.000000
  108.850000     82.000000
  108.900000     61.000000
  108.950000     57.000000
  109.000000     75.000000
  109.050000     55.000000
  109.100000     75.000000
  109.150000     60.000000
  109.200000     65.000000
  109.250000     71.000000
  109.300000     66.000000
  109.350000     72.000000
  109.400000     71.000000
  109.450000     66.000000
  109.500000     54.000000
  109.550000     83.000000
  109.600000     67.000000
  109.650000     62.000000
  109.700000     72.000000
  109.750000     76.000000
  109.800000     50.000000
  109.850000     76.000000
  109.900000     51.000000
  109.950000     66.000000
  110.000000     76.000000
  110.050000     69.000000
  110.100000     65.000000
  110.150000     62.000000
  110.200000     75.000000
  110.250000     77.000000
  110.300000     81.000000
  110.350000     66.000000
  110.400000     89.000000
  110.450000     75.000000
  110.500000     86.000000
  110.550000     80.000000
  110.600000     75.000000
  110.650000     86.000000
  110.700000     74.000000
  110.750000     89.000000
  110.800000    104.000000
  110.850000     83.000000
  110.900000     93.000000
  110.950000     90.000000
  111.000000     98.000000
  111.050000    109.000000
  111.100000    103.000000
  111.150000     78.000000
  111.200000     95.000000
  111.250000     86.000000
  111.300000    102.000000
  111.350000    105.000000
  111.400000    110.000000
  111.450000    121.000000
  111.500000    120.000000
  111.550000    114.000000
  111.600000    132.000000
  111.650000    121.000000
  111.700000    162.000000
  111.750000    144.000000
  111.800000    159.000000
  111.850000    161.000000
  111.900000    186.000000
  111.950000    159.000000
  112.000000    172.000000
  112.050000    208.000000
  112.100000    169.000000
  112.150000    222.000000
  112.200000    204.000000
  112.250000    247.000000
  112.300000    218.000000
  112.350000    254.000000
  112.400000    273.000000
  112.450000    253.000000
  112.500000    314.000000
  112.550000    284.000000
  112.600000    318.000000
  112.650000    345.000000
  112.700000    341.000000
  112.750000    357.000000
  112.800000    377.000000
  112.850000    390.000000
  112.900000    408.000000
  112.950000    397.000000
  113.000000    424.000000
  113.050000    422.000000
  113.100000    431.000000
  113.150000    421.000000
  113.200000    405.000000
  113.250000    386.000000
  113.300000    394.000000
  113.350000    416.000000
  113.400000    411.000000
  113.450000    441.000000
  113.500000    379.000000
  113.550000    385.000000
  113.600000    346.000000
  113.650000    370.000000
  113.700000    353.000000
  113.750000    319.000000
  113.800000    289.000000
  113.850000    257.000000
  113.900000    277.000000
  113.950000    265.000000
  114.000000    238.000000
  114.050000    257.000000
  114.100000    261.000000
  114.150000    208.000000
  114.200000    209.000000
  114.250000    214.000000
  114.300000    179.000000
  114.350000    169.000000
  114.400000    165.000000
  114.450000    139.000000
  114.500000    154.000000
  114.550000    171.000000
  114.600000    147.000000
  114.650000    154.000000
  114.700000    149.000000
  114.750000    147.000000
  114.800000    150.000000
  114.850000    148.000000
  114.900000    147.000000
  114.950000    131.000000
  115.000000    128.000000
  115.050000    141.000000
  115.100000    138.000000
  115.150000    125.000000
  115.200000    159.000000
  115.250000    147.000000
  115.300000    132.000000
  115.350000    130.000000
  115.400000    134.000000
  115.450000    120.000000
  115.500000    126.000000
  115.550000    143.000000
  115.600000    113.000000
  115.650000    132.000000
  115.700000    147.000000
  115.750000    115.000000
  115.800000    129.000000
  115.850000    121.000000
  115.900000    113.000000
  115.950000    121.000000
  116.000000    119.000000
  116.050000    120.000000
  116.100000    119.000000
  116.150000     83.000000
  116.200000    123.000000
  116.250000    107.000000
  116.300000    102.000000
  116.350000     97.000000
  116.400000     94.000000
  116.450000     92.000000
  116.500000     86.000000
  116.550000    114.000000
  116.600000     90.000000
  116.650000     83.000000
  116.700000     84.000000
  116.750000     82.000000
  116.800000     84.000000
  116.850000     84.000000
  116.900000     75.000000
  116.950000     81.000000
  117.000000     70.000000
  117.050000     74.000000
  117.100000     71.000000
  117.150000     80.000000
  117.200000     61.000000
  117.250000     66.000000
  117.300000     68.000000
  117.350000     69.000000
  117.400000     76.000000
  117.450000     71.000000
  117.500000     66.000000
  117.550000     80.000000
  117.600000     78.000000
  117.650000     64.000000
  117.700000     60.000000
  117.750000     65.000000
  117.800000     64.000000
  117.850000     72.000000
  117.900000     59.000000
  117.950000     57.000000
  118.000000     65.000000
  118.050000     62.000000
  118.100000     51.000000
  118.150000     80.000000
  118.200000     70.000000
  118.250000     74.000000
  118.300000     62.000000
  118.350000     54.000000
  118.400000     70.000000
  118.450000     51.000000
  118.500000     58.000000
  118.550000     59.000000
  118.600000     61.000000
  118.650000     57.000000
  118.700000     60.000000
  118.750000     63.000000
  118.800000     75.000000
  118.850000     57.000000
  118.900000     49.000000
  118.950000     66.000000
  119.000000     61.000000
  119.050000     59.000000
  119.100000     67.000000
  119.150000     76.000000
  119.200000     65.000000
  119.250000     58.000000
  119.300000     75.000000
  119.350000     56.000000
  119.400000     50.000000
  119.450000     68.000000
  119.500000     68.000000
  119.550000     70.000000
  119.600000     64.000000
  119.650000     55.000000
  119.700000     57.000000
  119.750000     57.000000
  119.800000     58.000000
  119.850000     57.000000
  119.900000     55.000000
  119.950000     72.000000
  120.000000     56.000000
  120.050000     55.000000
  120.100000     53.000000
  120.150000     67.000000
  120.200000     77.000000
  120.250000     58.000000
  120.300000     69.000000
  120.350000     65.000000
  120.400000     70.000000
  120.450000     52.000000
  120.500000     52.000000
  120.550000     63.000000
  120.600000     63.000000
  120.650000     71.000000
  120.700000     60.000000
  120.750000     64.000000
  120.800000     66.000000
  120.850000     63.000000
  120.900000     57.000000
  120.950000     48.000000
  121.000000     50.000000
  121.050000     47.000000
  121.100000     58.000000
  121.150000     58.000000
  121.200000     62.000000
  121.250000     83.000000
  121.300000     67.000000
  121.350000     64.000000
  121.400000     55.000000
  121.450000     85.000000
  121.500000     62.000000
  121.550000     79.000000
  121.600000     68.000000
  121.650000     64.000000
  121.700000     80.000000
  121.750000     76.000000
  121.800000     59.000000
  121.850000     69.000000
  121.900000     74.000000
  121.950000     66.000000
  122.000000     80.000000
  122.050000     68.000000
  122.100000     61.000000
  122.150000     60.000000
  122.200000     78.000000
  122.250000     65.000000
  122.300000     73.000000
  122.350000     65.000000
  122.400000     74.000000
  122.450000     50.000000
  122.500000     58.000000
  122.550000     75.000000
  122.600000     68.000000
  122.650000     70.000000
  122.700000     75.000000
  122.750000     68.000000
  122.800000     62.000000
  122.850000     80.000000
  122.900000     70.000000
  122.950000     82.000000
  123.000000     77.000000
  123.050000     83.000000
  123.100000     88.000000
  123.150000     87.000000
  123.200000     87.000000
  123.250000     98.000000
  123.300000     75.000000
  123.350000     85.000000
  123.400000     64.000000
  123.450000     65.000000
  123.500000     75.000000
  123.550000     86.000000
  123.600000     91.000000
  123.650000     99.000000
  123.700000    115.000000
  123.750000     95.000000
  123.800000     96.000000
  123.850000     92.000000
  123.900000    109.000000
  123.950000    115.000000
  124.000000    114.000000
  124.050000     91.000000
  124.100000    126.000000
  124.150000    120.000000
  124.200000    101.000000
  124.250000    121.000000
  124.300000    132.000000
  124.350000    110.000000
  124.400000    134.000000
  124.450000    131.000000
  124.500000    135.000000
  124.550000    132.000000
  124.600000    144.000000
  124.650000    146.000000
  124.700000    163.000000
  124.750000    156.000000
  124.800000    163.000000
  124.850000    176.000000
  124.900000    197.000000
  124.950000    209.000000
  125.000000    205.000000
  125.050000    212.000000
  125.100000    212.000000
  125.150000    225.000000
  125.200000    246.000000
  125.250000    242.000000
  125.300000    264.000000
  125.350000    253.000000
  125.400000    282.000000
  125.450000    243.000000
  125.500000    294.000000
  125.550000    316.000000
  125.600000    308.000000
  125.650000    324.000000
  125.700000    385.000000
  125.750000    357.000000
  125.800000    409.000000
  125.850000    389.000000
  125.900000    400.000000
  125.950000    409.000000
  126.000000    421.000000
  126.050000    409.000000
  126.100000    416.000000
  126.150000    499.000000
  126.200000    451.000000
  126.250000    469.000000
  126.300000    512.000000
  126.350000    444.000000
  126.400000    480.000000
  126.450000    461.000000
  126.500000    462.000000
  126.550000    465.000000
  126.600000    440.000000
  126.650000    448.000000
  126.700000    395.000000
  126.750000    414.000000
  126.800000    370.000000
  126.850000    396.000000
  126.900000    398.000000
  126.950000    351.000000
  127.000000    365.000000
  127.050000    327.000000
  127.100000    327.000000
  127.150000    316.000000
  127.200000    314.000000
  127.250000    272.000000
  127.300000    286.000000
  127.350000    230.000000
  127.400000    250.000000
  127.450000    222.000000
  127.500000    237.000000
  127.550000    228.000000
  127.600000    237.000000
  127.650000    210.000000
  127.700000    183.000000
  127.750000    180.000000
  127.800000    207.000000
  127.850000    205.000000
  127.900000    178.000000
  127.950000    164.000000
  128.000000    159.000000
  128.050000    183.000000
  128.100000    153.000000
  128.150000    149.000000
  128.200000    136.000000
  128.250000    139.000000
  128.300000    131.000000
  128.350000    143.000000
  128.400000    118.000000
  128.450000    120.000000
  128.500000    122.000000
  128.550000    122.000000
  128.600000    126.000000
  128.650000    136.000000
  128.700000    128.000000
  128.750000    119.000000
  128.800000    105.000000
  128.850000    113.000000
  128.900000    122.000000
  128.950000    116.000000
  129.000000    104.000000
  129.050000    105.000000
  129.100000    101.000000
  129.150000     86.000000
  129.200000     99.000000
  129.250000     89.000000
  129.300000     97.000000
  129.350000     97.000000
  129.400000     79.000000
  129.450000     69.000000
  129.500000     92.000000
  129.550000     78.000000
  129.600000     88.000000
  129.650000    119.000000
  129.700000     98.000000
  129.750000     80.000000
  129.800000     86.000000
  129.850000     88.000000
  129.900000     89.000000
  129.950000     67.000000
  130.000000     88.000000
  130.050000     79.000000
  130.100000     68.000000
  130.150000     92.000000
  130.200000     92.000000
  130.250000     89.000000
  130.300000     55.000000
  130.350000     73.000000
  130.400000     77.000000
  130.450000     85.000000
  130.500000     80.000000
  130.550000     95.000000
  130.600000     85.000000
  130.650000     68.000000
  130.700000     79.000000
  130.750000     60.000000
  130.800000     70.000000
  130.850000     83.000000
  130.900000     80.000000
  130.950000     90.000000
  131.000000     79.000000
  131.050000     80.000000
  131.100000     56.000000
  131.150000     66.000000
  131.200000     61.000000
  131.250000     92.000000
  131.300000     90.000000
  131.350000     77.000000
  131.400000     72.000000
  131.450000     99.000000
  131.500000     80.000000
  131.550000     76.000000
  131.600000     78.000000
  131.650000     75.000000
  131.700000     65.000000
  131.750000     85.000000
  131.800000     68.000000
  131.850000    104.000000
  131.900000     81.000000
  131.950000     81.000000
  132.000000     67.000000
  132.050000     79.000000
  132.100000     69.000000
  132.150000     77.000000
  132.200000     86.000000
  132.250000     80.000000
  132.300000     84.000000
  132.350000     78.000000
  132.400000     90.000000
  132.450000    106.000000
  132.500000     77.000000
  132.550000     78.000000
  132.600000     77.000000
  132.650000     84.000000
  132.700000     86.000000
  132.750000     81.000000
  132.800000     83.000000
  132.850000     80.000000
  132.900000    103.000000
  132.950000     93.000000
  133.000000     98.000000
  133.050000     99.000000
  133.100000    100.000000
  133.150000     95.000000
  133.200000    110.000000
  133.250000     95.000000
  133.300000    106.000000
  133.350000    104.000000
  133.400000     89.000000
  133.450000     80.000000
  133.500000    101.000000
  133.550000    114.000000
  133.600000    128.000000
  133.650000    132.000000
  133.700000    112.000000
  133.750000    111.000000
  133.800000    116.000000
  133.850000    133.000000
  133.900000    130.000000
  133.950000    121.000000
  134.000000    120.000000
  134.050000    119.000000
  134.100000    138.000000
  134.150000    143.000000
  134.200000    159.000000
  134.250000    147.000000
  134.300000    150.000000
  134.350000    159.000000
  134.400000    148.000000
  134.450000    153.000000
  134.500000    156.000000
  134.550000    166.000000
  134.600000    170.000000
  134.650000    157.000000
  134.700000    175.000000
  134.750000    174.000000
  134.800000    191.000000
  134.850000    177.000000
  134.900000    190.000000
  134.950000    175.000000
  135.000000    182.000000
  135.050000    199.000000
  135.100000    226.000000
  135.150000    217.000000
  135.200000    210.000000
  135.250000    200.000000
  135.300000    193.000000
  135.350000    187.000000
  135.400000    222.000000
  135.450000    208.000000
  135.500000    200.000000
  135.550000    228.000000
  135.600000    187.000000
  135.650000    206.000000
  135.700000    217.000000
  135.750000    202.000000
  135.800000    223.000000
  135.850000    211.000000
  135.900000    195.000000
  135.950000    180.000000
  136.000000    190.000000
  136.050000    168.000000
  136.100000    179.000000
  136.150000    176.000000
  136.200000    167.000000
  136.250000    164.000000
  136.300000    187.000000
  136.350000    152.000000
  136.400000    154.000000
  136.450000    175.000000
  136.500000    168.000000
  136.550000    155.000000
  136.600000    148.000000
  136.650000    175.000000
  136.700000    145.000000
  136.750000    145.000000
  136.800000    157.000000
  136.850000    134.000000
  136.900000    141.000000
  136.950000    125.000000
  137.000000    131.000000
  137.050000    118.000000
  137.100000    139.000000
  137.150000    122.000000
  137.200000    134.000000
  137.250000    131.000000
  137.300000    122.000000
  137.350000    116.000000
  137.400000    120.000000
  137.450000    113.000000
  137.500000    119.000000
  137.550000    116.000000
  137.600000    126.000000
  137.650000    132.000000
  137.700000    114.000000
  137.750000    125.000000
  137.800000    109.000000
  137.850000    129.000000
  137.900000    108.000000
  137.950000    124.000000
  138.000000    109.000000
  138.050000    114.000000
  138.100000    129.000000
  138.150000    135.000000
  138.200000    123.000000
  138.250000    106.000000
  138.300000    116.000000
  138.350000     99.000000
  138.400000    126.000000
  138.450000     96.000000
  138.500000    102.000000
  138.550000    114.000000
  138.600000     96.000000
  138.650000    126.000000
  138.700000    115.000000
  138.750000    120.000000
  138.800000    108.000000
  138.850000    113.000000
  138.900000     99.000000
  138.950000     99.000000
  139.000000    110.000000
  139.050000    104.000000
  139.100000    109.000000
  139.150000     99.000000
  139.200000    108.000000
  139.250000    100.000000
  139.300000     91.000000
  139.350000    127.000000
  139.400000     86.000000
  139.450000    105.000000
  139.500000    102.000000
  139.550000     88.000000
  139.600000     81.000000
  139.650000     95.000000
  139.700000     91.000000
  139.750000     93.000000
  139.800000     92.000000
  139.850000    101.000000
  139.900000     93.000000
  139.950000     91.000000
  140.000000     88.000000
  140.050000     95.000000
  140.100000     73.000000
  140.150000     89.000000
  140.200000     95.000000
  140.250000     90.000000
  140.300000     73.000000
  140.350000     98.000000
  140.400000     90.000000
  140.450000     80.000000
  140.500000     86.000000
  140.550000     80.000000
  140.600000     72.000000
  140.650000     69.000000
  140.700000     73.000000
  140.750000     82.000000
  140.800000     86.000000
  140.850000     85.000000
  140.900000     63.000000
  140.950000     74.000000
  141.000000     78.000000
  141.050000     67.000000
  141.100000     89.000000
  141.150000     80.000000
  141.200000     82.000000
  141.250000     79.000000
  141.300000     86.000000
  141.350000     70.000000
  141.400000     81.000000
  141.450000     59.000000
  141.500000     79.000000
  141.550000     64.000000
  141.600000     64.000000
  141.650000     57.000000
  141.700000     55.000000
  141.750000     70.000000
  141.800000     69.000000
  141.850000     75.000000
  141.900000     66.000000
  141.950000     68.000000
  142.000000     66.000000
  142.050000     75.000000
  142.100000     68.000000
  142.150000     75.000000
  142.200000     81.000000
  142.250000     58.000000
  142.300000     69.000000
  142.350000     76.000000
  142.400000     68.000000
  142.450000     62.000000
  142.500000     65.000000
  142.550000     73.000000
  142.600000     77.000000
  142.650000     73.000000
  142.700000     69.000000
  142.750000     66.000000
  142.800000     70.000000
  142.850000     70.000000
  142.900000     64.000000
  142.950000     69.000000
  143.000000     53.000000
  143.050000     67.000000
  143.100000     64.000000
  143.150000     72.000000
  143.200000     60.000000
  143.250000     80.000000
  143.300000     68.000000
  143.350000     62.000000
  143.400000     70.000000
  143.450000     59.000000
  143.500000     61.000000
  143.550000     58.000000
  143.600000     69.000000
  143.650000     70.000000
  143.700000     65.000000
  143.750000     66.000000
  143.800000     61.000000
  143.850000     66.000000
  143.900000     65.000000
  143.950000     65.000000
  144.000000     62.000000
  144.050000     65.000000
  144.100000     60.000000
  144.150000     59.000000
  144.200000     66.000000
  144.250000     61.000000
  144.300000     74.000000
  144.350000     55.000000
  144.400000     58.000000
  144.450000     76.000000
  144.500000     57.000000
  144.550000     75.000000
  144.600000     65.000000
  144.650000     61.000000
  144.700000     60.000000
  144.750000     54.000000
  144.800000     57.000000
  144.850000     63.000000
  144.900000     50.000000
  144.950000     64.000000
  145.000000     66.000000
